Wavelength (nm)	T_SILICIO	R_SILICIO
1800	10.58416748	28.93879509
1796	10.66199398	28.8819313
1792	10.73733044	28.89988327
1788	10.81254482	28.94999886
1784	10.8886528	28.98608208
1780	10.96565819	29.01821327
1776	11.03956413	29.04227638
1772	11.11132431	29.05979538
1768	11.18226528	29.07123375
1764	11.25032043	29.08617973
1760	11.31965351	29.09588814
1756	11.38997459	29.10251999
1752	11.46204948	29.11293411
1748	11.53246117	29.12129402
1744	11.60287952	29.13446617
1740	11.67481136	29.14365196
1736	11.74575233	29.15331268
1732	11.81581593	29.16522598
1728	11.88857079	29.16731644
1724	11.95827007	29.17713356
1720	12.02897549	29.1836853
1716	12.10020161	29.1938343
1712	12.17047691	29.20324707
1708	12.24215031	29.21635437
1704	12.31758499	29.22533798
1700	12.39278507	29.23745537
1696	12.47011757	29.24827385
1692	12.55002022	29.2538662
1688	12.63233852	29.25738907
1684	12.71779251	29.26342583
1680	12.8023119	29.26803589
1676	12.89001846	29.26939964
1672	12.9823761	29.26800346
1668	13.07354832	29.27085876
1664	13.1700201	29.26922989
1660	13.2614193	29.26524353
1656	13.3515625	29.25066376
1652	13.44320202	29.23204613
1648	13.53151321	29.21695328
1644	13.61944866	29.20383644
1640	13.7110281	29.20020294
1636	13.80173588	29.19888115
1632	13.8902216	29.19857788
1628	13.98227978	29.20084381
1624	14.07350922	29.21150017
1620	14.16894817	29.21524048
1616	14.26177502	29.22108269
1612	14.35435581	29.22885895
1608	14.44983292	29.23801041
1604	14.54563904	29.24617004
1600	14.63998604	29.25457001
1596	14.73695374	29.25983429
1592	14.83589745	29.26552773
1588	14.93753338	29.27589798
1584	15.03586483	29.28353882
1580	15.1337471	29.29035187
1576	15.23377609	29.29778099
1572	15.33499527	29.30557823
1568	15.4347105	29.31058311
1564	15.54205227	29.3195858
1560	15.64344311	29.32570076
1556	15.74827099	29.33151436
1552	15.8546133	29.34535408
1548	15.95632172	29.3504982
1544	16.06278801	29.35798836
1540	16.16731644	29.36268806
1536	16.26702309	29.3757
1532	16.37554741	29.38315201
1528	16.47916794	29.39205551
1524	16.584095	29.40244293
1520	16.68968391	29.4054718
1516	16.79360962	29.42245865
1512	16.90188789	29.43181229
1508	17.00385857	29.43944931
1504	17.11075401	29.44962883
1500	17.21968269	29.46212006
1496	17.32661057	29.46960449
1492	17.43943787	29.47692108
1488	17.54346848	29.49185944
1484	17.65461731	29.50145149
1480	17.75393105	29.51686859
1476	17.86574364	29.52097321
1472	17.97750854	29.54522514
1468	18.08825111	29.54644012
1464	18.19181061	29.55659676
1460	18.30547714	29.57534599
1456	18.41524124	29.57110596
1452	18.52334976	29.59510612
1448	18.62974548	29.59688759
1444	18.73622704	29.60677528
1440	18.84686089	29.61075211
1436	18.95791626	29.63219643
1432	19.06168747	29.6276474
1428	19.17442322	29.65906525
1424	19.28050804	29.66602516
1420	19.39027786	29.67006302
1416	19.49263763	29.68802071
1412	19.59423637	29.72453117
1408	19.70911217	29.72366905
1404	19.81507874	29.72589111
1400	19.92725182	29.73546791
1396	20.01300049	29.7413063
1392	20.13096428	29.73064613
1388	20.24086761	29.83457565
1384	20.35507774	29.78397369
1380	20.44995499	29.74036217
1376	20.56347275	29.80798149
1372	20.68671608	29.88300896
1368	20.77650833	29.77829742
1364	20.87012482	29.84700394
1360	20.97815895	29.88332939
1356	21.08176041	29.87894821
1352	21.18585777	29.85128784
1348	21.2890625	29.88534927
1344	21.38794708	29.905653
1340	21.49307251	29.91828918
1336	21.59098053	29.9316864
1332	21.68989563	29.94213676
1328	21.78834915	29.95815659
1324	21.88068008	29.97596741
1320	21.97681618	29.98634338
1316	22.06542015	30.00067711
1312	22.16046906	30.01248169
1308	22.26481247	30.02089691
1304	22.35671997	30.03989792
1300	22.44145393	30.05365562
1296	22.54016685	30.06679153
1292	22.62924767	30.07917213
1288	22.7145462	30.0902977
1284	22.7994957	30.1064167
1280	22.88732147	30.11804962
1276	22.97128105	30.13558006
1272	23.05692291	30.14564705
1268	23.1385498	30.16188049
1264	23.21863747	30.17419434
1260	23.31064224	30.18736076
1256	23.38580132	30.20060349
1252	23.45658684	30.21531487
1248	23.5360527	30.22664452
1244	23.6118679	30.2417717
1240	23.68435478	30.25527191
1236	23.75829887	30.26648712
1232	23.82579613	30.27688217
1228	23.8962059	30.29131889
1224	23.96767044	30.30487251
1220	24.03404808	30.31707573
1216	24.09680939	30.32995224
1212	24.15242004	30.34330559
1208	24.21043015	30.35412025
1204	24.26371956	30.36856651
1200	24.31044579	30.3815403
1196	24.37395668	30.42775917
1192	24.40345955	30.43962097
1188	24.44219208	30.44975281
1184	24.45160675	30.45681
1180	24.45265579	30.46463776
1176	24.44215393	30.47581291
1172	24.4113121	30.47644043
1168	24.36897278	30.48186302
1164	24.29697037	30.48775291
1160	24.21417618	30.48740005
1156	24.10552406	30.48366356
1152	23.97531509	30.48571014
1148	23.83294868	30.48241043
1144	23.66141129	30.47929192
1140	23.46408463	30.46996307
1136	23.24394608	30.45986938
1132	23.00029945	30.44665909
1128	22.72242546	30.42075729
1124	22.42087936	30.40416908
1120	22.09683609	30.38047791
1116	21.73370552	30.35384941
1112	21.33628845	30.32621193
1108	20.90919113	30.30167198
1104	20.43188286	30.27230263
1100	19.92108536	30.23838997
1096	19.36183739	30.20357323
1092	18.76172638	30.17060089
1088	18.1044178	30.13578033
1084	17.39873123	30.09536362
1080	16.63449097	30.05112267
1076	15.80282021	30.00469971
1072	14.89859676	29.95853043
1068	13.94149399	29.90984154
1064	12.88924789	29.86411285
1060	11.77473354	29.81691551
1056	10.58558941	29.77591133
1052	9.391237259	29.73822784
1048	8.214016914	29.70437431
1044	7.075059414	29.68186188
1040	5.996630192	29.66522408
1036	5.012850285	29.65610313
1032	4.12276125	29.65216446
1028	3.336253405	29.65281677
1024	2.657712936	29.65786171
1020	2.082169294	29.66680527
1016	1.605426192	29.67834282
1012	1.218259335	29.69144821
1008	0.9092066288	29.70517349
1004	0.6685768962	29.71925926
1000	0.4839303493	29.73711395
996	0.3422370851	29.75214195
992	0.2392302901	29.76507759
988	0.1639434397	29.78226662
984	0.1104790941	29.80135155
980	0.07196067274	29.81930161
976	0.04624661431	29.83175659
972	0.0277740974	29.85130119
968	0.0161167942	29.86733818
964	0.008145943284	29.88670921
960	0.004264279269	29.90217018
956	0.001248722081	29.9229908
952	0.001835144591	29.94006348
948	0.002058519749	29.95884323
944	0.002365384251	29.97899628
940	0.00260367943	29.99653816
936	0.003204728011	30.01926231
932	0.003927425947	30.03730583
928	0.003316273913	30.05894661
924	0.002891396172	30.08306122
920	0.00359752588	30.09902191
916	0.002683902392	30.11998177
912	0.002757943934	30.14594841
908	0.003797399811	30.16985703
904	0.003180103842	30.19365311
900	0.002775721718	30.21690559
896	0.002610112075	30.24155998
892	0.003336507594	30.26535988
888	0.002961853519	30.28823853
884	0.003005543025	30.31366539
880	0.002766004065	30.33802414
876	0.002638295991	30.36021233
872	0.00244689011	30.38526344
868	0.003232777352	30.4102211
864	0.002710934728	30.43416595
860	0.003715662286	30.45907402
856	0.003099986585	30.4791069
852	0.00251453626	30.50163841
848	0.003988107201	30.5199852
844	0.003053556429	30.54169464
840	0.00237307488	30.56322479
836	0.003099725349	30.58682442
832	0.002669618232	30.60813522
828	0.003523838008	30.63253403
824	0.002711354522	30.65559196
820	0.002939546015	30.67864799
816	0.003064764664	30.70315361
812	0.002794586821	30.72448349
808	0.00295099034	30.74979401
804	0.00374887418	30.77503777
800	0.002511305735	30.80066681
799	0.002	30.83324509
798	0.002	30.84528809
797	0.002	30.84867172
796	0.002	30.84994583
795	0.002	30.870858
794	0.002	30.86549835
793	0.002	30.86494141
792	0.002	30.8684166
791	0.002	30.87524109
790	0.002	30.883004
789	0.002	30.88989334
788	0.002	30.89673309
787	0.002	30.91240387
786	0.002	30.90622025
785	0.002	30.90506821
784	1E-3	30.91528015
783	1E-3	30.92288284
782	1E-3	30.93386917
781	1E-3	30.92749863
780	1E-3	30.93892365
779	1E-3	30.95467072
778	1E-3	30.93922501
777	1E-3	30.9574173
776	1E-3	30.94749908
775	1E-3	30.96835022
774	1E-3	30.95966415
773	1E-3	30.97474365
772	1E-3	30.96752243
771	1E-3	30.9779747
770	1E-3	30.9866684
769	1E-3	30.99438553
768	1E-3	30.99997025
767	1E-3	31.00718765
766	1E-3	31.00153809
765	1E-3	31.02274399
764	1E-3	31.02315598
763	0	31.02060013
762	0	31.03321533
761	0	31.03582458
760	0	31.037957
759	0	31.04149704
758	0	31.05223923
757	0	31.06097488
756	0	31.04940872
755	0	31.06183319
754	0	31.07140427
753	0	31.07991867
752	0	31.08385162
751	0	31.08482056
750	0	31.08759766
749	0	31.09450989
748	0	31.09702377
747	0	31.10194092
746	0	31.11601334
745	0	31.12045364
744	0	31.12421112
743	0	31.13245468
742	0	31.12980347
741	0	31.13995438
740	0	31.14347153
739	0	31.15654068
738	0	31.15187531
737	0	31.15832977
736	0	31.16030579
735	0	31.16952972
734	0	31.17641907
733	0	31.18440704
732	0	31.18412476
731	0	31.19280701
730	0	31.19421844
729	0	31.20243149
728	0	31.21248322
727	0	31.21358948
726	0	31.22218781
725	0	31.22326355
724	0	31.23304443
723	0	31.24031143
722	0	31.2462738
721	0	31.24930267
720	0	31.25282745
719	0	31.26483231
718	0	31.27044373
717	0	31.27681427
716	0	31.27579956
715	0	31.27903442
714	0	31.28846054
713	0	31.29118423
712	0	31.29374008
711	0	31.30732422
710	0	31.31543045
709	0	31.31132965
708	0	31.32959442
707	0	31.32719498
706	0	31.3352478
705	0	31.33892517
704	0	31.34137802
703	0	31.35547714
702	0	31.35830765
701	0	31.36691742
700	0	31.37295609
699	0	31.37992554
698	0	31.38337784
697	0	31.38942413
696	0	31.39795761
695	0	31.40468292
694	0	31.41096573
693	0	31.41554718
692	0	31.42648773
691	0	31.43082886
690	0	31.43404465
689	0	31.43973236
688	0	31.44701843
687	0	31.45322495
686	0	31.4604538
685	0	31.47098999
684	0	31.46817474
683	0	31.48755722
682	0	31.4879921
681	0	31.49803238
680	0	31.50422745
679	0	31.51341324
678	0	31.52024918
677	0	31.53209763
676	0	31.53656845
675	0	31.54678802
674	0	31.55247574
673	0	31.55860977
672	0	31.57266693
671	0	31.57653503
670	0	31.58516006
669	0	31.59541016
668	0	31.6009758
667	0	31.61208801
666	0	31.62335281
665	0	31.62616806
664	0	31.6398819
663	0	31.64402847
662	0	31.66102676
661	0	31.67088776
660	0	31.67995148
659	0	31.69094925
658	0	31.69971161
657	0	31.71228485
656	0	31.7211235
655	0	31.73007278
654	0	31.73667984
653	0	31.7577713
652	0	31.76464539
651	0	31.7772377
650	0	31.78960876
649	0	31.79679565
648	0	31.81436234
647	0	31.82401733
646	0	31.83845978
645	0	31.84981232
644	0	31.86048203
643	0	31.87448959
642	0	31.88790207
641	0	31.8965004
640	0	31.90700607
639	0	31.92462616
638	0	31.93883972
637	0	31.94923859
636	0	31.96397095
635	0	31.97605972
634	0	31.98551636
633	0	31.99211197
632	0	32.01846771
631	0	32.02543335
630	0	32.03503113
629	0	32.0509613
628	0	32.06120377
627	0	32.07772141
626	0	32.08943253
625	0	32.10206299
624	0	32.11274796
623	0	32.12787323
622	0	32.13957291
621	0	32.14889603
620	0	32.16151886
619	0	32.17822723
618	0	32.18516617
617	0	32.19750671
616	0	32.21279984
615	0	32.23036652
614	0	32.23982697
613	0	32.25299911
612	0	32.26631241
611	0	32.28401642
610	0	32.29950409
609	0	32.32185059
608	0	32.3290947
607	0	32.35333328
606	0	32.36547546
605	0	32.3820694
604	0	32.40350418
603	0	32.4218605
602	0	32.43586044
601	0	32.4561203
600	0	32.48021393
599	0	32.50219803
598	0	32.52699356
597	0	32.54265671
596	0	32.56322937
595	0	32.57730942
594	0	32.60403519
593	0	32.62904434
592	0	32.65098267
591	0	32.66957932
590	0	32.68901901
589	0	32.71695786
588	0	32.73756485
587	0	32.7593811
586	0	32.77547531
585	0	32.80072861
584	0	32.81818466
583	0	32.84162598
582	0	32.86719208
581	0	32.88586121
580	0	32.90417175
579	0	32.92843323
578	0	32.95346527
577	0	32.9798439
576	0	32.99663239
575	0	33.01720505
574	0	33.03424149
573	0	33.06216888
572	0	33.07716827
571	0	33.10288696
570	0	33.12802963
569	0	33.06433182
568	0	33.0939949
567	0	33.10976868
566	0	33.13738708
565	0	33.15709
564	0	33.17973022
563	0	33.19960098
562	0	33.22011642
561	0	33.24814301
560	0	33.26406555
559	0	33.28617935
558	0	33.31216125
557	0	33.3320015
556	0	33.35555344
555	0	33.38246231
554	0	33.40835266
553	0	33.43468933
552	0	33.46147995
551	0	33.47986679
550	0	33.50261383
549	0	33.5297821
548	0	33.5494278
547	0	33.5776413
546	0	33.60477142
545	0	33.62688141
544	0	33.64815979
543	0	33.68336945
542	0	33.70391159
541	0	33.72931366
540	0	33.75836639
539	0	33.78835373
538	0	33.81021194
537	0	33.83611755
536	0	33.86136322
535	0	33.89064102
534	0	33.9182785
533	0	33.95325928
532	0	33.97909241
531	0	34.00951462
530	0	34.03852539
529	0	34.06792145
528	0	34.0965889
527	0	34.12849884
526	0	34.15249329
525	0	34.18824844
524	0	34.22189789
523	0	34.25921707
522	0	34.28872375
521	0	34.31914215
520	0	34.35189514
519	0	34.38833313
518	0	34.42263107
517	0	34.44991379
516	0	34.48400955
515	0	34.51580887
514	0	34.55761032
513	0	34.59536057
512	0	34.6291893
511	0	34.66746597
510	0	34.69291382
509	0	34.72617416
508	0	34.77041702
507	0	34.81025772
506	0	34.84583359
505	0	34.88589554
504	0	34.92837219
503	0	34.96764069
502	0	35.00985794
501	0	35.04747849
500	0	35.08956604
499	0	35.13142853
498	0	35.16765289
497	0	35.21299438
496	0	35.26140671
495	0	35.29699402
494	0	35.34032898
493	0	35.38662796
492	0	35.42748337
491	0	35.4722908
490	0	35.5221756
489	0	35.57342606
488	0	35.61568146
487	0	35.6633461
486	0	35.70625763
485	0	35.75727921
484	0	35.80636292
483	0	35.84918671
482	0	35.90749054
481	0	35.95763474
480	0	36.00998383
479	0	36.05394058
478	0	36.1047142
477	0	36.16130905
476	0	36.21724014
475	0	36.26623611
474	0	36.31582718
473	0	36.38336258
472	0	36.43431549
471	0	36.49023132
470	0	36.55135803
469	0	36.61243134
468	0	36.66604309
467	0	36.72269897
466	0	36.78363113
465	0	36.84616547
464	0	36.91360168
463	0	36.97463303
462	0	37.04066162
461	0	37.11066132
460	0	37.16639404
459	0	37.23655396
458	0	37.30435257
457	0	37.36475449
456	0	37.43938522
455	0	37.51040726
454	0	37.57894211
453	0	37.65932159
452	0	37.73478394
451	0	37.80886154
450	0	37.88257675
449	0	37.95889359
448	0	38.03868561
447	0	38.12173157
446	0	38.1944397
445	0	38.27960663
444	0	38.36696701
443	0	38.45727997
442	0	38.53144913
441	0	38.62590485
440	0	38.71300201
439	0	38.79332809
438	0	38.90266495
437	0	38.98856049
436	0	39.07924347
435	0	39.17594223
434	0	39.27404099
433	0	39.38232498
432	0	39.48667603
431	0	39.58454971
430	0	39.69070892
429	0	39.80139236
428	0	39.91339188
427	0	40.01863937
426	0	40.12058334
425	0	40.24574738
424	0	40.36119919
423	0	40.4772728
422	0	40.613694
421	0	40.72933273
420	0	40.86196976
419	0	40.9795311
418	0	41.12307053
417	0	41.25205688
416	0	41.38953094
415	0	41.52103882
414	0	41.66660004
413	0	41.81262665
412	0	41.96970062
411	0	42.12598114
410	0	42.2607048
409	0	42.404496
408	0	42.56512909
407	0	42.7599762
406	0	42.93571167
405	0	43.07548599
404	0	43.24589996
403	0	43.43660049
402	0	43.60921173
401	0	43.80788879
400	0	44.01107864
399	0	44.20568542
398	0	44.41359024
397	0	44.64464264
396	0	44.86848907
395	0	45.08914261
394	0	45.31524734
393	0	45.56197815
392	0	45.83061676
391	0	46.07422333
390	0	46.350354
389	0	46.6329277
388	0	46.91600876
387	0	47.21483307
386	0	47.51794128
385	0	47.82950287
384	0	48.16475754
383	0	48.5087326
382	0	48.87519913
381	0	49.24537735
380	0	49.61544113
379	0	50.02018051
378	0	50.41303329
377	0	50.81794434
376	0	51.20061188
375	0	51.59566574
374	0	51.95120697
373	0	52.27633743
372	0	52.57107239
371	0	52.8215683
370	0	53.03634338
369	0	53.19617157
368	0	53.28994827
367	0	53.35331802
366	0	53.35455399
365	0	53.30659561
364	0	53.20039825
363	0	53.05030899
362	0	52.854039
361	0	52.63953094
360	0	52.39376526
359	0	52.14387589
358	0	51.87677078
357	0	51.63298111
356	0	51.38974075
355	0	51.16268616
354	0	50.96118622
353	0	50.76868515
352	0	50.60520248
351	0	50.45655899
350	0	50.33545761
349	0	50.07732086
348	0	49.98996811
347	0	49.88426666
346	0	49.84716492
345	0	49.75951843
344	0	49.70514755
343	0	49.70087509
342	0	49.67041092
341	0	49.64007263
340	0	49.61757355
339	0	49.85033875
338	0	49.8603447
337	0	49.84995728
336	0	49.86100464
335	0	49.85203247
334	0	49.88056641
333	0	49.94921951
332	0	49.93193893
331	0	49.9690979
330	0	50.01383667
329	0	50.05056458
328	0	50.08874969
327	0	50.13620453
326	0	50.19635468
325	0	50.23322372
324	0	50.30270081
323	0	50.38708572
322	0	50.46205215
321	0	50.54875259
320	0	50.6614502
319	0	50.75805359
318	0	50.84984283
317	0	50.9664238
316	0	51.11227875
315	0	51.24417191
314	0	51.39362793
313	0	51.55166702
312	0	51.71999435
311	0	51.89209824
310	0	52.12982635
309	0	52.35712509
308	0	52.576371
307	0	52.82573776
306	0	53.09035568
305	0	53.40946274
304	0	53.71978836
303	0	54.04420547
302	0	54.43777161
301	0	54.8163269
300	0	55.22811966
299	0	55.67744904
298	0	56.16788177
297	0	56.67223816
296	0	57.23007278
295	0	57.7898262
294	0	58.38005905
293	0	59.05505447
292	0	59.69817429
291	0	60.34148483
290	0	60.9999321
289	0	61.55856018
288	0	62.10242157
287	0	62.52096634
286	0	62.83401184
285	0	63.11265259
284	0	63.35783081
283	0	63.58233337
282	0	63.77364044
281	0	63.97238617
280	0	64.18467407
279	0	64.35265808
278	0	64.51125031
277	0	64.67445068
276	0	64.77831726
275	0	64.83231812
274	0	64.84971313
273	0	64.84589081
272	0	64.75199585
271	0	64.5934494
270	0	64.3983429
269	0	64.19428711
268	0	63.90387421
267	0	63.58726196
266	0	63.23247986
265	0	62.88068085
264	0	62.52768021
263	0	62.15167694
262	0	61.79080658
261	0	61.42092209
260	0	61.03955154
259	0	60.6546524
258	0	60.2572525
257	0	59.86833649
256	0	59.46737747
255	0	59.09366302
254	0	58.69305878
253	0	58.29328232
252	0	57.91118317
251	0	57.56961136
250	0	57.19258194
249	0	56.79728775
248	0	56.38686447
247	0	55.99437027
246	0	55.61546783
245	0	55.23115997
244	0	54.90984802
243	0	54.55966263
242	0	54.22353439
241	0	53.92937546
240	0	53.68740921
239	0	53.48110657
238	0	53.3266304
237	0	53.26848679
236	0	53.2817009
235	0	53.36155014
234	0	53.52624969
233	0	53.76672821
232	0	54.03487473
231	0	54.35292511
230	0	54.64524155
229	0	54.90648727
228	0	55.08852844
227	0	55.23782425
226	0	55.29123764
225	0	55.30038147
224	0	55.25995712
223	0	55.18744736
222	0	55.10996323
221	0	54.98514633
220	0	54.86391525
219	0	54.74175339
218	0	54.61313705
217	0	54.48484497
216	0	54.35500793
215	0	54.24281387
214	0	54.10028152
213	0	53.99177628
212	0	53.87235718
211	0	53.74123077
210	0	53.59546738
209	0	53.48405151
208	0	53.33561401
207	0	53.19100647
206	0	53.05406265
205	0	52.91043167
204	0	52.78004913
203	0	52.63994293
202	0	52.44517212
201	0	52.26440506
200	0	53.17191925
