
Wavelength (nm)	Gen uR 0°	Gen uR 5°	Gen uR 10°	Gen uR 15°	Gen uR 20°	Gen uR 25°	Gen uR 30°	Gen uR 35°	Gen uR 40°	Gen uR 45°l	0	5	10	15	20	25	30	35	40	45	
250	0.6636	0.66362	0.66368	0.66374	0.66377	0.6637	0.66346	0.66293	0.66203	0.66066	
252	0.67098	0.671	0.67105	0.67111	0.67113	0.67105	0.67078	0.67021	0.66925	0.66777	
254	0.67868	0.6787	0.67875	0.67881	0.67882	0.67872	0.67842	0.67781	0.67678	0.6752	
256	0.6865	0.68652	0.68657	0.68662	0.68662	0.6865	0.68617	0.68552	0.68442	0.68275	
258	0.6942	0.69422	0.69427	0.69431	0.6943	0.69417	0.69381	0.69312	0.69196	0.69018	
260	0.70157	0.70159	0.70163	0.70167	0.70165	0.7015	0.70112	0.70039	0.69916	0.69728	
262	0.7084	0.70842	0.70846	0.70849	0.70846	0.7083	0.70789	0.70712	0.70583	0.70385	
264	0.71454	0.71456	0.7146	0.71462	0.71459	0.71441	0.71398	0.71317	0.71182	0.70975	
266	0.71991	0.71992	0.71996	0.71998	0.71994	0.71974	0.71929	0.71845	0.71704	0.71488	
268	0.72448	0.72449	0.72453	0.72455	0.72449	0.72429	0.72381	0.72294	0.72148	0.71922	
270	0.72829	0.7283	0.72833	0.72835	0.72829	0.72807	0.72758	0.72667	0.72515	0.72281	
272	0.73121	0.73122	0.73125	0.73126	0.73119	0.73096	0.73045	0.7295	0.72794	0.72551	
274	0.73259	0.73261	0.73263	0.73264	0.73256	0.73232	0.73179	0.73081	0.72919	0.72668	
276	0.73158	0.73159	0.73162	0.73162	0.73154	0.73128	0.73073	0.72972	0.72805	0.72545	
278	0.72805	0.72806	0.72809	0.72808	0.728	0.72773	0.72716	0.72612	0.7244	0.72171	
280	0.72333	0.72335	0.72337	0.72336	0.72327	0.723	0.72241	0.72134	0.71957	0.7168	
282	0.71904	0.71905	0.71907	0.71907	0.71897	0.71869	0.71808	0.71699	0.71517	0.71234	
284	0.71484	0.71485	0.71487	0.71486	0.71476	0.71447	0.71385	0.71273	0.71086	0.70796	
286	0.70885	0.70886	0.70888	0.70886	0.70876	0.70845	0.70782	0.70667	0.70476	0.70177	
288	0.69978	0.69979	0.69981	0.6998	0.69968	0.69937	0.69872	0.69754	0.69559	0.69253	
290	0.68789	0.6879	0.68791	0.6879	0.68778	0.68746	0.6868	0.6856	0.68361	0.6805	
292	0.67432	0.67433	0.67435	0.67433	0.67421	0.67389	0.67322	0.67201	0.67	0.66685	
294	0.66041	0.66042	0.66044	0.66042	0.6603	0.65998	0.6593	0.65809	0.65607	0.6529	
296	0.64716	0.64717	0.64719	0.64717	0.64705	0.64673	0.64606	0.64484	0.64283	0.63967	
298	0.63515	0.63516	0.63517	0.63516	0.63504	0.63472	0.63406	0.63285	0.63085	0.62771	
300	0.62458	0.62459	0.62461	0.62459	0.62448	0.62416	0.6235	0.62231	0.62032	0.61722	
302	0.61542	0.61543	0.61544	0.61543	0.61532	0.615	0.61435	0.61317	0.61121	0.60813	
304	0.60752	0.60753	0.60755	0.60753	0.60742	0.60711	0.60647	0.6053	0.60336	0.60032	
306	0.60076	0.60077	0.60078	0.60077	0.60066	0.60036	0.59972	0.59856	0.59664	0.59363	
308	0.59493	0.59494	0.59495	0.59494	0.59483	0.59453	0.5939	0.59275	0.59085	0.58786	
310	0.58986	0.58987	0.58989	0.58988	0.58977	0.58947	0.58885	0.58771	0.58582	0.58286	
312	0.58549	0.5855	0.58551	0.5855	0.58539	0.5851	0.58448	0.58335	0.58147	0.57853	
314	0.58164	0.58165	0.58167	0.58166	0.58155	0.58126	0.58064	0.57952	0.57765	0.57474	
316	0.57828	0.57829	0.57831	0.5783	0.57819	0.5779	0.57728	0.57617	0.57431	0.57141	
318	0.57531	0.57532	0.57534	0.57533	0.57522	0.57493	0.57432	0.5732	0.57136	0.56847	
320	0.5727	0.57271	0.57272	0.57271	0.5726	0.57231	0.5717	0.57059	0.56875	0.56588	
322	0.57037	0.57038	0.5704	0.57038	0.57028	0.56999	0.56938	0.56827	0.56644	0.56357	
324	0.56832	0.56833	0.56835	0.56833	0.56823	0.56793	0.56733	0.56622	0.56439	0.56153	
326	0.56651	0.56652	0.56654	0.56652	0.56642	0.56613	0.56552	0.56442	0.56259	0.55973	
328	0.56493	0.56494	0.56496	0.56494	0.56483	0.56454	0.56394	0.56284	0.56101	0.55816	
330	0.56358	0.56359	0.5636	0.56359	0.56348	0.56319	0.56258	0.56148	0.55965	0.5568	
332	0.56245	0.56246	0.56247	0.56246	0.56235	0.56205	0.56145	0.56035	0.55852	0.55567	
334	0.56154	0.56155	0.56157	0.56155	0.56144	0.56115	0.56054	0.55943	0.55761	0.55475	
336	0.56087	0.56088	0.5609	0.56088	0.56077	0.56047	0.55986	0.55876	0.55693	0.55407	
338	0.56046	0.56047	0.56048	0.56047	0.56035	0.56006	0.55944	0.55834	0.5565	0.55363	
340	0.56032	0.56033	0.56034	0.56032	0.56021	0.55991	0.5593	0.55818	0.55634	0.55347	
342	0.56047	0.56048	0.56049	0.56047	0.56036	0.56006	0.55944	0.55832	0.55647	0.55358	
344	0.56094	0.56095	0.56096	0.56094	0.56083	0.56052	0.5599	0.55878	0.55692	0.55401	
346	0.56177	0.56177	0.56178	0.56176	0.56165	0.56134	0.56071	0.55958	0.55771	0.55479	
348	0.56299	0.563	0.56301	0.56299	0.56287	0.56256	0.56192	0.56078	0.5589	0.55595	
350	0.5647	0.56471	0.56472	0.56469	0.56457	0.56426	0.56362	0.56247	0.56056	0.55759	
352	0.567	0.567	0.56701	0.56699	0.56686	0.56655	0.5659	0.56473	0.56281	0.5598	
354	0.57002	0.57002	0.57003	0.57	0.56988	0.56955	0.56889	0.56771	0.56576	0.56272	
356	0.57385	0.57386	0.57387	0.57384	0.57371	0.57337	0.5727	0.5715	0.56953	0.56644	
358	0.57844	0.57844	0.57845	0.57842	0.57829	0.57795	0.57726	0.57604	0.57403	0.57088	
360	0.58339	0.5834	0.5834	0.58337	0.58323	0.58288	0.58218	0.58093	0.57888	0.57567	
362	0.58793	0.58794	0.58794	0.58791	0.58776	0.58741	0.58669	0.58542	0.58332	0.58005	
364	0.59112	0.59113	0.59113	0.59109	0.59094	0.59058	0.58985	0.58855	0.58642	0.58309	
366	0.59219	0.5922	0.5922	0.59216	0.592	0.59163	0.59089	0.58958	0.58742	0.58404	
368	0.59081	0.59081	0.59081	0.59077	0.59061	0.59023	0.58949	0.58816	0.58598	0.58258	
370	0.58693	0.58694	0.58694	0.58689	0.58673	0.58635	0.5856	0.58427	0.58209	0.57868	
372	0.58117	0.58118	0.58118	0.58113	0.58097	0.58059	0.57984	0.57851	0.57633	0.57294	
374	0.57418	0.57419	0.57419	0.57414	0.57398	0.5736	0.57285	0.57154	0.56938	0.56601	
376	0.56649	0.5665	0.56649	0.56645	0.56629	0.56591	0.56517	0.56387	0.56174	0.55841	
378	0.5585	0.5585	0.5585	0.55845	0.55829	0.55792	0.5572	0.55591	0.55381	0.55054	
380	0.55051	0.55051	0.55051	0.55046	0.55031	0.54994	0.54923	0.54797	0.5459	0.54268	
382	0.54269	0.54269	0.54269	0.54264	0.54249	0.54213	0.54143	0.54019	0.53816	0.53501	
384	0.5351	0.5351	0.5351	0.53505	0.5349	0.53455	0.53386	0.53265	0.53067	0.52759	
386	0.52785	0.52785	0.52785	0.5278	0.52766	0.52731	0.52664	0.52546	0.52352	0.5205	
388	0.52095	0.52095	0.52095	0.5209	0.52076	0.52042	0.51977	0.51861	0.51671	0.51377	
390	0.5144	0.5144	0.5144	0.51436	0.51422	0.51389	0.51324	0.51211	0.51026	0.50739	
392	0.50829	0.50829	0.50829	0.50825	0.50811	0.50779	0.50716	0.50606	0.50425	0.50144	
394	0.50256	0.50257	0.50256	0.50252	0.50239	0.50207	0.50146	0.50038	0.49862	0.49588	
396	0.49722	0.49723	0.49722	0.49718	0.49705	0.49675	0.49615	0.49509	0.49337	0.49069	
398	0.49228	0.49229	0.49228	0.49225	0.49212	0.49182	0.49123	0.4902	0.48852	0.4859	
400	0.48766	0.48766	0.48766	0.48762	0.48749	0.4872	0.48663	0.48562	0.48397	0.48142	
402	0.48339	0.48339	0.48339	0.48335	0.48323	0.48294	0.48238	0.4814	0.47978	0.47729	
404	0.47936	0.47936	0.47936	0.47933	0.47921	0.47893	0.47838	0.47741	0.47583	0.47339	
406	0.4756	0.4756	0.4756	0.47557	0.47545	0.47517	0.47464	0.47369	0.47214	0.46975	
408	0.47203	0.47203	0.47203	0.47199	0.47188	0.47161	0.47108	0.47015	0.46864	0.4663	
410	0.46865	0.46865	0.46865	0.46861	0.4685	0.46824	0.46772	0.46681	0.46533	0.46303	
412	0.4654	0.46541	0.4654	0.46537	0.46526	0.465	0.46449	0.4636	0.46215	0.4599	
414	0.46231	0.46232	0.46231	0.46228	0.46217	0.46192	0.46142	0.46055	0.45912	0.45692	
416	0.45933	0.45933	0.45933	0.4593	0.45919	0.45894	0.45845	0.4576	0.4562	0.45404	
418	0.45646	0.45646	0.45646	0.45643	0.45633	0.45608	0.4556	0.45476	0.45339	0.45127	
420	0.45368	0.45369	0.45368	0.45365	0.45355	0.45331	0.45284	0.45202	0.45067	0.4486	
422	0.451	0.451	0.451	0.45097	0.45087	0.45064	0.45017	0.44936	0.44804	0.44601	
424	0.4484	0.44841	0.4484	0.44838	0.44828	0.44805	0.44759	0.4468	0.4455	0.44351	
426	0.44588	0.44588	0.44588	0.44585	0.44575	0.44553	0.44508	0.4443	0.44303	0.44108	
428	0.44343	0.44344	0.44344	0.44341	0.44331	0.44309	0.44266	0.44189	0.44064	0.43873	
430	0.44106	0.44106	0.44106	0.44103	0.44094	0.44072	0.4403	0.43954	0.43832	0.43644	
432	0.43874	0.43875	0.43874	0.43872	0.43863	0.43841	0.43799	0.43726	0.43606	0.43422	
434	0.4365	0.4365	0.4365	0.43648	0.43639	0.43618	0.43577	0.43504	0.43387	0.43206	
436	0.43432	0.43432	0.43432	0.43429	0.4342	0.434	0.4336	0.43289	0.43173	0.42996	
438	0.43218	0.43219	0.43219	0.43216	0.43208	0.43187	0.43148	0.43078	0.42965	0.42791	
440	0.43011	0.43012	0.43012	0.43009	0.43001	0.42981	0.42942	0.42874	0.42763	0.42592	
442	0.4281	0.4281	0.4281	0.42808	0.42799	0.4278	0.42742	0.42675	0.42566	0.42399	
444	0.42613	0.42613	0.42613	0.42611	0.42603	0.42584	0.42546	0.4248	0.42374	0.4221	
446	0.42421	0.42421	0.42421	0.42419	0.42411	0.42392	0.42355	0.42291	0.42186	0.42026	
448	0.42234	0.42234	0.42234	0.42232	0.42224	0.42206	0.4217	0.42107	0.42004	0.41847	
450	0.42052	0.42052	0.42052	0.4205	0.42043	0.42025	0.41989	0.41927	0.41826	0.41672	
452	0.41874	0.41875	0.41875	0.41872	0.41865	0.41847	0.41813	0.41752	0.41653	0.41502	
454	0.41701	0.41701	0.41701	0.41699	0.41692	0.41674	0.4164	0.41581	0.41484	0.41335	
456	0.41532	0.41532	0.41532	0.4153	0.41523	0.41506	0.41472	0.41414	0.41318	0.41173	
458	0.41367	0.41367	0.41367	0.41365	0.41358	0.41342	0.41309	0.41251	0.41158	0.41016	
460	0.41206	0.41206	0.41206	0.41204	0.41198	0.41181	0.41149	0.41093	0.41001	0.40862	
462	0.41049	0.41049	0.41049	0.41047	0.41041	0.41025	0.40993	0.40938	0.40848	0.40711	
464	0.40896	0.40896	0.40896	0.40894	0.40887	0.40872	0.40841	0.40786	0.40698	0.40564	
466	0.40746	0.40746	0.40746	0.40744	0.40738	0.40722	0.40692	0.40639	0.40552	0.40421	
468	0.406	0.406	0.406	0.40598	0.40592	0.40577	0.40547	0.40495	0.4041	0.40281	
470	0.40457	0.40458	0.40458	0.40456	0.4045	0.40435	0.40406	0.40354	0.40271	0.40145	
472	0.40318	0.40318	0.40318	0.40317	0.40311	0.40296	0.40267	0.40217	0.40135	0.40012	
474	0.40182	0.40183	0.40183	0.40181	0.40175	0.40161	0.40132	0.40083	0.40003	0.39882	
476	0.4005	0.4005	0.4005	0.40048	0.40042	0.40028	0.40001	0.39952	0.39874	0.39755	
478	0.3992	0.3992	0.3992	0.39918	0.39913	0.39899	0.39872	0.39824	0.39747	0.39631	
480	0.39793	0.39793	0.39793	0.39792	0.39786	0.39773	0.39746	0.39699	0.39624	0.3951	
482	0.39669	0.39669	0.39669	0.39668	0.39662	0.39649	0.39623	0.39577	0.39503	0.39391	
484	0.39548	0.39548	0.39548	0.39547	0.39541	0.39528	0.39503	0.39458	0.39385	0.39276	
486	0.3943	0.3943	0.3943	0.39428	0.39423	0.3941	0.39385	0.39341	0.3927	0.39163	
488	0.39314	0.39314	0.39314	0.39313	0.39308	0.39295	0.3927	0.39227	0.39157	0.39052	
490	0.39201	0.39201	0.39201	0.392	0.39195	0.39182	0.39158	0.39116	0.39047	0.38944	
492	0.3909	0.3909	0.3909	0.39089	0.39084	0.39072	0.39048	0.39007	0.38939	0.38838	
494	0.38982	0.38982	0.38982	0.38981	0.38976	0.38964	0.38941	0.389	0.38834	0.38735	
496	0.38876	0.38876	0.38876	0.38875	0.3887	0.38859	0.38836	0.38796	0.38731	0.38634	
498	0.38773	0.38773	0.38773	0.38772	0.38767	0.38756	0.38733	0.38694	0.3863	0.38535	
500	0.38671	0.38672	0.38672	0.3867	0.38666	0.38655	0.38633	0.38594	0.38532	0.38439	
502	0.38572	0.38572	0.38572	0.38571	0.38567	0.38556	0.38534	0.38496	0.38435	0.38344	
504	0.38475	0.38475	0.38475	0.38474	0.3847	0.38459	0.38438	0.38401	0.38341	0.38252	
506	0.3838	0.3838	0.3838	0.38379	0.38375	0.38364	0.38344	0.38307	0.38248	0.38161	
508	0.38287	0.38287	0.38287	0.38286	0.38282	0.38272	0.38251	0.38215	0.38158	0.38072	
510	0.38196	0.38196	0.38196	0.38195	0.38191	0.38181	0.38161	0.38126	0.38069	0.37985	
512	0.38107	0.38107	0.38107	0.38106	0.38102	0.38092	0.38072	0.38038	0.37982	0.379	
514	0.38019	0.38019	0.38019	0.38018	0.38014	0.38005	0.37985	0.37951	0.37897	0.37817	
516	0.37933	0.37933	0.37934	0.37933	0.37929	0.37919	0.379	0.37867	0.37814	0.37735	
518	0.37849	0.37849	0.37849	0.37848	0.37845	0.37835	0.37817	0.37784	0.37732	0.37655	
520	0.37767	0.37767	0.37767	0.37766	0.37762	0.37753	0.37735	0.37703	0.37652	0.37576	
522	0.37686	0.37686	0.37686	0.37685	0.37681	0.37672	0.37654	0.37623	0.37573	0.37499	
524	0.37606	0.37606	0.37606	0.37605	0.37602	0.37593	0.37575	0.37545	0.37495	0.37423	
526	0.37528	0.37528	0.37528	0.37527	0.37524	0.37515	0.37498	0.37468	0.3742	0.37349	
528	0.37451	0.37451	0.37452	0.37451	0.37447	0.37439	0.37422	0.37392	0.37345	0.37276	
530	0.37376	0.37376	0.37376	0.37375	0.37372	0.37364	0.37347	0.37318	0.37272	0.37204	
532	0.37302	0.37302	0.37303	0.37302	0.37298	0.3729	0.37274	0.37245	0.372	0.37133	
534	0.3723	0.3723	0.3723	0.37229	0.37226	0.37218	0.37202	0.37174	0.3713	0.37064	
536	0.37159	0.37159	0.37159	0.37158	0.37155	0.37147	0.37131	0.37104	0.3706	0.36997	
538	0.37089	0.37089	0.37089	0.37088	0.37085	0.37077	0.37062	0.37035	0.36992	0.3693	
540	0.3702	0.3702	0.3702	0.37019	0.37016	0.37009	0.36994	0.36967	0.36925	0.36864	
542	0.36952	0.36952	0.36952	0.36951	0.36948	0.36941	0.36926	0.369	0.36859	0.368	
544	0.36885	0.36885	0.36885	0.36885	0.36882	0.36875	0.3686	0.36835	0.36795	0.36736	
546	0.3682	0.3682	0.3682	0.36819	0.36817	0.36809	0.36795	0.3677	0.36731	0.36674	
548	0.36755	0.36756	0.36756	0.36755	0.36752	0.36745	0.36731	0.36707	0.36668	0.36613	
550	0.36692	0.36692	0.36692	0.36692	0.36689	0.36682	0.36669	0.36645	0.36607	0.36552	
552	0.3663	0.3663	0.3663	0.36629	0.36627	0.3662	0.36607	0.36583	0.36546	0.36493	
554	0.36568	0.36568	0.36569	0.36568	0.36565	0.36559	0.36546	0.36523	0.36487	0.36435	
556	0.36508	0.36508	0.36508	0.36508	0.36505	0.36499	0.36486	0.36463	0.36428	0.36377	
558	0.36449	0.36449	0.36449	0.36448	0.36446	0.3644	0.36427	0.36405	0.3637	0.36321	
560	0.3639	0.3639	0.3639	0.3639	0.36387	0.36381	0.36369	0.36347	0.36313	0.36265	
562	0.36333	0.36333	0.36333	0.36332	0.3633	0.36324	0.36312	0.36291	0.36257	0.3621	
564	0.36276	0.36276	0.36276	0.36275	0.36273	0.36267	0.36255	0.36235	0.36202	0.36156	
566	0.3622	0.3622	0.3622	0.3622	0.36217	0.36212	0.362	0.3618	0.36148	0.36103	
568	0.36165	0.36165	0.36165	0.36165	0.36162	0.36157	0.36145	0.36126	0.36095	0.36051	
570	0.36111	0.36111	0.36111	0.36111	0.36108	0.36103	0.36092	0.36072	0.36042	0.35999	
572	0.36057	0.36057	0.36057	0.36057	0.36055	0.36049	0.36039	0.3602	0.3599	0.35948	
574	0.36004	0.36005	0.36005	0.36004	0.36002	0.35997	0.35986	0.35968	0.35939	0.35898	
576	0.35953	0.35953	0.35953	0.35953	0.35951	0.35945	0.35935	0.35917	0.35888	0.35849	
578	0.35902	0.35902	0.35902	0.35901	0.359	0.35894	0.35884	0.35866	0.35839	0.358	
580	0.35851	0.35851	0.35851	0.35851	0.35849	0.35844	0.35834	0.35817	0.3579	0.35752	
582	0.35801	0.35801	0.35802	0.35801	0.35799	0.35795	0.35785	0.35768	0.35741	0.35705	
584	0.35752	0.35753	0.35753	0.35752	0.35751	0.35746	0.35736	0.3572	0.35694	0.35658	
586	0.35704	0.35704	0.35704	0.35704	0.35702	0.35698	0.35688	0.35672	0.35647	0.35612	
588	0.35656	0.35656	0.35657	0.35656	0.35655	0.3565	0.35641	0.35625	0.35601	0.35567	
590	0.35609	0.35609	0.3561	0.35609	0.35608	0.35603	0.35594	0.35579	0.35555	0.35522	
592	0.35563	0.35563	0.35563	0.35563	0.35561	0.35557	0.35548	0.35533	0.3551	0.35478	
594	0.35517	0.35517	0.35518	0.35517	0.35516	0.35511	0.35503	0.35488	0.35465	0.35435	
596	0.35472	0.35472	0.35472	0.35472	0.35471	0.35466	0.35458	0.35444	0.35421	0.35392	
598	0.35428	0.35428	0.35428	0.35428	0.35426	0.35422	0.35414	0.354	0.35378	0.3535	
600	0.35384	0.35384	0.35384	0.35384	0.35382	0.35378	0.3537	0.35357	0.35336	0.35308	
602	0.3534	0.3534	0.3534	0.3534	0.35339	0.35335	0.35327	0.35314	0.35293	0.35266	
604	0.35297	0.35298	0.35298	0.35298	0.35296	0.35292	0.35285	0.35272	0.35252	0.35226	
606	0.35255	0.35255	0.35256	0.35255	0.35254	0.3525	0.35243	0.3523	0.35211	0.35186	
608	0.35213	0.35214	0.35214	0.35214	0.35212	0.35209	0.35202	0.35189	0.3517	0.35146	
610	0.35172	0.35172	0.35173	0.35172	0.35171	0.35168	0.35161	0.35149	0.3513	0.35107	
612	0.35132	0.35132	0.35132	0.35132	0.35131	0.35127	0.3512	0.35109	0.35091	0.35068	
614	0.35091	0.35092	0.35092	0.35092	0.3509	0.35087	0.35081	0.35069	0.35052	0.3503	
616	0.35052	0.35052	0.35052	0.35052	0.35051	0.35048	0.35041	0.3503	0.35014	0.34992	
618	0.35013	0.35013	0.35013	0.35013	0.35012	0.35009	0.35003	0.34992	0.34976	0.34955	
620	0.34974	0.34974	0.34974	0.34974	0.34973	0.3497	0.34964	0.34954	0.34938	0.34918	
622	0.34936	0.34936	0.34936	0.34936	0.34935	0.34932	0.34926	0.34916	0.34901	0.34882	
624	0.34898	0.34898	0.34899	0.34898	0.34897	0.34895	0.34889	0.34879	0.34864	0.34846	
626	0.34861	0.34861	0.34861	0.34861	0.3486	0.34857	0.34852	0.34842	0.34828	0.34811	
628	0.34824	0.34824	0.34825	0.34824	0.34824	0.34821	0.34815	0.34806	0.34792	0.34776	
630	0.34788	0.34788	0.34788	0.34788	0.34787	0.34785	0.34779	0.3477	0.34757	0.34741	
632	0.34752	0.34752	0.34752	0.34752	0.34751	0.34749	0.34744	0.34735	0.34722	0.34707	
634	0.34716	0.34717	0.34717	0.34717	0.34716	0.34713	0.34709	0.347	0.34688	0.34674	
636	0.34681	0.34681	0.34682	0.34681	0.34681	0.34678	0.34674	0.34665	0.34654	0.3464	
638	0.34647	0.34647	0.34647	0.34647	0.34646	0.34644	0.34639	0.34631	0.3462	0.34607	
640	0.34612	0.34612	0.34613	0.34613	0.34612	0.3461	0.34605	0.34598	0.34587	0.34575	
642	0.34578	0.34579	0.34579	0.34579	0.34578	0.34576	0.34572	0.34564	0.34554	0.34543	
644	0.34545	0.34545	0.34545	0.34545	0.34545	0.34543	0.34539	0.34531	0.34521	0.34511	
646	0.34512	0.34512	0.34512	0.34512	0.34512	0.3451	0.34506	0.34499	0.34489	0.34479	
648	0.34479	0.34479	0.3448	0.3448	0.34479	0.34477	0.34473	0.34467	0.34458	0.34448	
650	0.34447	0.34447	0.34447	0.34447	0.34447	0.34445	0.34441	0.34435	0.34426	0.34418	
652	0.34415	0.34415	0.34415	0.34415	0.34415	0.34413	0.34409	0.34403	0.34395	0.34387	
654	0.34383	0.34383	0.34384	0.34384	0.34383	0.34382	0.34378	0.34372	0.34364	0.34357	
656	0.34352	0.34352	0.34352	0.34352	0.34352	0.3435	0.34347	0.34341	0.34334	0.34327	
658	0.34321	0.34321	0.34322	0.34322	0.34321	0.3432	0.34317	0.34311	0.34304	0.34298	
660	0.34291	0.34291	0.34291	0.34291	0.34291	0.34289	0.34286	0.34281	0.34274	0.34269	
662	0.3426	0.3426	0.34261	0.34261	0.3426	0.34259	0.34256	0.34251	0.34245	0.34241	
664	0.3423	0.34231	0.34231	0.34231	0.34231	0.34229	0.34227	0.34222	0.34216	0.34212	
666	0.34201	0.34201	0.34201	0.34201	0.34201	0.342	0.34197	0.34193	0.34187	0.34184	
668	0.34172	0.34172	0.34172	0.34172	0.34172	0.34171	0.34168	0.34164	0.34159	0.34156	
670	0.34143	0.34143	0.34143	0.34143	0.34143	0.34142	0.34139	0.34136	0.34131	0.34129	
672	0.34114	0.34114	0.34114	0.34115	0.34114	0.34113	0.34111	0.34107	0.34103	0.34102	
674	0.34086	0.34086	0.34086	0.34086	0.34086	0.34085	0.34083	0.34079	0.34076	0.34075	
676	0.34058	0.34058	0.34058	0.34058	0.34058	0.34057	0.34055	0.34052	0.34048	0.34048	
678	0.3403	0.3403	0.3403	0.34031	0.3403	0.3403	0.34028	0.34025	0.34022	0.34022	
680	0.34003	0.34003	0.34003	0.34003	0.34003	0.34002	0.34001	0.33998	0.33995	0.33996	
682	0.33975	0.33976	0.33976	0.33976	0.33976	0.33975	0.33974	0.33971	0.33969	0.3397	
684	0.33949	0.33949	0.33949	0.33949	0.33949	0.33949	0.33947	0.33945	0.33943	0.33945	
686	0.33922	0.33922	0.33922	0.33923	0.33923	0.33922	0.33921	0.33919	0.33917	0.33919	
688	0.33896	0.33896	0.33896	0.33896	0.33896	0.33896	0.33895	0.33893	0.33891	0.33894	
690	0.3387	0.3387	0.3387	0.3387	0.3387	0.3387	0.33869	0.33867	0.33866	0.3387	
692	0.33844	0.33844	0.33844	0.33845	0.33845	0.33844	0.33843	0.33842	0.33841	0.33845	
694	0.33819	0.33819	0.33819	0.33819	0.33819	0.33819	0.33818	0.33817	0.33816	0.33821	
696	0.33793	0.33793	0.33794	0.33794	0.33794	0.33794	0.33793	0.33792	0.33792	0.33797	
698	0.33768	0.33768	0.33769	0.33769	0.33769	0.33769	0.33768	0.33767	0.33768	0.33773	
700	0.33744	0.33744	0.33744	0.33744	0.33744	0.33744	0.33744	0.33743	0.33744	0.3375	
702	0.33719	0.33719	0.3372	0.3372	0.3372	0.3372	0.33719	0.33719	0.3372	0.33727	
704	0.33695	0.33695	0.33695	0.33696	0.33696	0.33696	0.33695	0.33695	0.33696	0.33704	
706	0.33671	0.33671	0.33671	0.33672	0.33672	0.33672	0.33672	0.33672	0.33673	0.33681	
708	0.33647	0.33647	0.33648	0.33648	0.33648	0.33648	0.33648	0.33648	0.3365	0.33658	
710	0.33624	0.33624	0.33624	0.33624	0.33625	0.33625	0.33625	0.33625	0.33627	0.33636	
712	0.336	0.33601	0.33601	0.33601	0.33601	0.33602	0.33602	0.33602	0.33605	0.33614	
714	0.33577	0.33578	0.33578	0.33578	0.33578	0.33579	0.33579	0.3358	0.33582	0.33592	
716	0.33555	0.33555	0.33555	0.33555	0.33556	0.33556	0.33556	0.33557	0.3356	0.33571	
